# a, ln_gamma(a)
0.050000000000000003,2.9688792010517306
0.10000000000000001,2.2527126517342055
0.15000000000000002,1.8278137762148341
0.20000000000000001,1.5240638224307845
0.25,1.2880225246980774
0.29999999999999999,1.0957979948180756
0.34999999999999998,0.93458122714623282
0.39999999999999997,0.79667781770178392
0.44999999999999996,0.67708710547746487
0.49999999999999994,0.57236494292470019
0.54999999999999993,0.48003085611112611
0.59999999999999998,0.39823385806923489
0.65000000000000002,0.32555218791990281
0.70000000000000007,0.26086724653166637
0.75000000000000011,0.20328095143129526
0.80000000000000016,0.15205967839983775
0.8500000000000002,0.1065951164781176
0.90000000000000024,0.06637623973474284
0.95000000000000029,0.030968795237972718
1.0000000000000002,-1.2816762426960013e-16
1.0500000000000003,-0.026853072502260298
1.1000000000000003,-0.049872441259839841
1.1500000000000004,-0.069306208671046976
1.2000000000000004,-0.085374090003315931
1.2500000000000004,-0.098271836421813225
1.3000000000000005,-0.10817480950786049
1.3500000000000005,-0.11524089735244514
1.4000000000000006,-0.1196129141723713
1.4500000000000006,-0.12142059074030685
1.5000000000000007,-0.12078223763524513
1.5500000000000007,-0.11780614464449432
1.6000000000000008,-0.11259176569675573
1.6500000000000008,-0.10523072817255126
1.7000000000000008,-0.095807697407065712
1.7500000000000009,-0.084401121020485345
1.8000000000000009,-0.071083872914371904
1.850000000000001,-0.055923813019656959
1.900000000000001,-0.038984275923082956
1.9500000000000011,-0.020324499149577215
2.0000000000000009,3.7550792262172493e-16
2.0500000000000007,0.02193709166717215
2.1000000000000005,0.045437738544485379
2.1500000000000004,0.07045573370411197
2.2000000000000002,0.096947466790638828
2.25,0.12487171489239653
2.2999999999999998,0.15418945495963049
2.3499999999999996,0.1848636950978928
2.3999999999999995,0.21685932244884137
2.4499999999999993,0.25014296569217576
2.4999999999999991,0.28468287047291857
2.5499999999999989,0.32044878628666007
2.5999999999999988,0.35741186354897891
2.6499999999999986,0.39554455973993674
2.6999999999999984,0.4348205536551033
2.7499999999999982,0.47521466691493564
2.799999999999998,0.51670279198774527
2.8499999999999979,0.55926182607057429
2.8999999999999977,0.60286961024930941
2.9499999999999975,0.64750487342607554
2.9999999999999973,0.69314718055994284
3.0499999999999972,0.73977688481748594
3.099999999999997,0.78737508327385952
3.1499999999999968,0.83592357584368016
3.1999999999999966,0.88540482715490554
3.2499999999999964,0.93580193110872167
3.2999999999999963,0.98709857789473088
3.3499999999999961,1.0392790232539566
3.3999999999999959,1.0923280598027372
3.4499999999999957,1.1462309902488073
3.4999999999999956,1.2009736023470694
3.5499999999999954,1.2565421454569905
3.5999999999999952,1.3129233085764107
3.649999999999995,1.370104199738063
3.6999999999999948,1.4280723266653819
3.7499999999999947,1.4868155785934107
3.7999999999999945,1.5463222091688984
3.8499999999999943,1.6065808203511285
3.8999999999999941,1.6675803472417328
3.949999999999994,1.7293100437777988
3.9999999999999938,1.7917594692280472
4.0499999999999936,1.8549184754368007
4.0999999999999934,1.9187771947649546
4.1499999999999932,1.9833260286812162
4.1999999999999931,2.0485556369605806
4.2499999999999929,2.114456927450362
4.2999999999999927,2.1810210463671598
4.3499999999999925,2.2482393690909253
4.3999999999999924,2.3161034914248471
4.4499999999999922,2.3846052212920692
4.499999999999992,2.4537365708424312
4.5499999999999918,2.5234897489443089
4.5999999999999917,2.5938571540384685
4.6499999999999915,2.6648313673324568
4.6999999999999913,2.7364051463155539
4.7499999999999911,2.808571418575724
4.7999999999999909,2.8813232759012317
4.8499999999999908,2.9546539686508142
4.8999999999999906,3.0285569003773265
4.9499999999999904,3.1030256226908226
4.9999999999999902,3.1780538303479311
5.0499999999999901,3.2536353565552418
5.0999999999999899,3.3297641684752097
5.1499999999999897,3.4064343629238159
5.1999999999999895,3.483640162249896
5.2499999999999893,3.5613759103866802
5.2999999999999892,3.6396360690666691
5.349999999999989,3.718415214191511
5.3999999999999888,3.7977080323490546
5.4499999999999886,3.8775093174702109
5.4999999999999885,3.9578139676186983
5.5499999999999883,4.0386169819071602
5.5999999999999881,4.1199134575335101
5.6499999999999879,4.2016985869317143
5.6999999999999877,4.2839676550315593
5.7499999999999876,4.3667160366222655
5.7999999999999874,4.4499391938150694
5.8499999999999872,4.5336326736001986
5.899999999999987,4.6177921054938995
5.9499999999999869,4.7024131992714135
5.9999999999999867,4.7874917427820236
6.0499999999999865,4.8730235998425018
6.0999999999999863,4.959004708205482
6.1499999999999861,5.0454310775994529
6.199999999999986,5.1322987878372697
6.2499999999999858,5.2196039869902044
6.2999999999999856,5.3073428896247368
6.3499999999999854,5.3955117750994184
6.3999999999999853,5.4841069859192748
6.4499999999999851,5.573124926145355
6.4999999999999849,5.6625620598571142
6.5499999999999847,5.7524149096654948
6.5999999999999845,5.842680055274605
6.6499999999999844,5.9333541320900549
6.6999999999999842,6.0244338298720557
6.749999999999984,6.1159158914315164
6.7999999999999838,6.2077971113674337
6.8499999999999837,6.3000743348439547
6.8999999999999835,6.3927444564055644
6.9499999999999833,6.485804418828943
6.9999999999999831,6.5792512120100692
7.0499999999999829,6.6730818718852429
7.0999999999999828,6.7672934793847386
7.1499999999999826,6.8618831594178697
7.1999999999999824,6.9568480798883066
7.2499999999999822,7.0521854507385058
7.2999999999999821,7.1478925230222154
7.3499999999999819,7.2439665880040094
7.3999999999999817,7.3404049762848924
7.4499999999999815,7.4372050569530268
7.4999999999999813,7.5343642367586972
7.5499999999999812,7.6318799593126458
7.599999999999981,7.7297497043069754
7.6499999999999808,7.8279709867578084
7.6999999999999806,7.9265413562689666
7.7499999999999805,8.025458396315944
7.7999999999999803,8.1247197235494859
7.8499999999999801,8.2243229871180787
7.8999999999999799,8.3242658680087693
7.9499999999999797,8.4245460784056334
7.9999999999999796,8.5251613610653738
8.0499999999999794,8.6261094887094103
8.0999999999999801,8.7273882634319992
8.1499999999999808,8.828995516123781
8.1999999999999815,8.9309291059103124
8.2499999999999822,9.033186919605086
8.2999999999999829,9.1357668711765587
8.3499999999999837,9.2386669012287559
8.3999999999999844,9.3418849764950203
8.4499999999999851,9.4454190893444991
8.4999999999999858,9.5492672573009685
8.5499999999999865,9.6534275225735886
8.5999999999999872,9.7578979515992721
8.6499999999999879,9.862676634596264
8.6999999999999886,9.9677616851286182
8.7499999999999893,10.073151239681218
8.7999999999999901,10.178843457245049
8.8499999999999908,10.284836518912416
8.8999999999999915,10.391128627481766
8.9499999999999922,10.497718007071899
8.9999999999999929,10.604602902745235
9.0499999999999936,10.711781580139911
9.0999999999999943,10.819252325110421
9.149999999999995,10.92701344337658
9.1999999999999957,11.035063260180548
9.2499999999999964,11.143400119951705
9.2999999999999972,11.25202238597914
9.3499999999999979,11.360928440091548
9.3999999999999986,11.470116682344315
9.4499999999999993,11.579585530713612
9.5,11.689333420797269
9.5500000000000007,11.799358805522287
9.6000000000000014,11.909660154858763
9.6500000000000021,12.020235955540084
9.7000000000000028,12.131084710789187
9.7500000000000036,12.242204940050771
9.8000000000000043,12.353595178729242
9.850000000000005,12.465253977932285
9.9000000000000057,12.577179904219893
9.9500000000000064,12.689371539358694
10.000000000000007,12.801827480081485
10.050000000000008,12.914546337851775
10.100000000000009,13.027526738633258
10.150000000000009,13.140767322664042
10.20000000000001,13.254266744235576
10.250000000000011,13.368023671476069
10.300000000000011,13.482036786138384
10.350000000000012,13.596304783392178
10.400000000000013,13.710826371620309
10.450000000000014,13.825600272219297
10.500000000000014,13.940625219403795
10.550000000000015,14.05589996001496
10.600000000000016,14.171423253332586
10.650000000000016,14.287193870891009
10.700000000000017,14.403210596298559
10.750000000000018,14.519472225060559
10.800000000000018,14.635977564405803
10.850000000000019,14.752725433116316
10.90000000000002,14.869714661360469
10.950000000000021,14.986944090529231
11.000000000000021,15.104412573075566
11.050000000000022,15.222118972356895
11.100000000000023,15.340062162480507
11.150000000000023,15.458241028151871
11.200000000000024,15.576654464525834
11.250000000000025,15.695301377060524
11.300000000000026,15.814180681374008
11.350000000000026,15.933291303103589
11.400000000000027,16.052632177767666
11.450000000000028,16.17220225063015
11.500000000000028,16.29200047656731
11.550000000000029,16.412025819937071
11.60000000000003,16.532277254450648
11.650000000000031,16.652753763046483
11.700000000000031,16.773454337766452
11.750000000000032,16.894377979634267
11.800000000000033,17.015523698536011
11.850000000000033,17.13689051310282
11.900000000000034,17.258477450595603
11.950000000000035,17.380283546791773
12.000000000000036,17.502307845873975
12.050000000000036,17.624549400320696
12.100000000000037,17.747007270798832
12.150000000000038,17.869680526058037
12.200000000000038,17.99256824282692
12.250000000000039,18.11566950571099
12.30000000000004,18.238983407092341
12.350000000000041,18.362509047031043
12.400000000000041,18.486245533168159
12.450000000000042,18.610191980630439
12.500000000000043,18.734347511936551
12.550000000000043,18.858711256904908
12.600000000000044,18.983282352562998
12.650000000000045,19.108059943058226
12.700000000000045,19.233043179570203
12.750000000000046,19.358231220224475
12.800000000000047,19.483623230007666
12.850000000000048,19.609218380683998
12.900000000000048,19.735015850713125
12.950000000000049,19.861014825169335
13.00000000000005,19.987214495662013
13.05000000000005,20.113614060257401
13.100000000000051,20.240212723401566
13.150000000000052,20.367009695844633
13.200000000000053,20.49400419456617
13.250000000000053,20.621195442701765
13.300000000000054,20.748582669470753
13.350000000000055,20.876165110105067
13.400000000000055,21.003942005779187
13.450000000000056,21.131912603541192
13.500000000000057,21.26007615624485
13.550000000000058,21.388431922482741
13.600000000000058,21.516979166520471
13.650000000000059,21.645717158231797
13.70000000000006,21.774645173034788
13.75000000000006,21.903762491828953
13.800000000000061,22.033068400933285
13.850000000000062,22.162562192025273
13.900000000000063,22.292243162080794
13.950000000000063,22.422110613314921
14.000000000000064,22.552163853123592
14.050000000000065,22.682402194026142
14.100000000000065,22.812824953608715
14.150000000000066,22.943431454468449
14.200000000000067,23.07422102415854
14.250000000000068,23.205192995134038
14.300000000000068,23.336346704698503
14.350000000000069,23.467681494951364
14.40000000000007,23.599196712736095
14.45000000000007,23.730891709589081
14.500000000000071,23.862765841689274
14.550000000000072,23.994818469808493
14.600000000000072,24.127048959262524
14.650000000000073,24.259456679862808
14.700000000000074,24.392041005868908
14.750000000000075,24.52480131594157
14.800000000000075,24.657736993096485
14.850000000000076,24.790847424658661
14.900000000000077,24.924132002217483
14.950000000000077,25.057590121582336
15.000000000000078,25.191221182738893
15.050000000000079,25.325024589805938
15.10000000000008,25.458999750992874
15.15000000000008,25.593146078557737
15.200000000000081,25.727462988765794
15.250000000000082,25.861949901848739
15.300000000000082,25.996606241964404
15.350000000000083,26.13143143715704
15.400000000000084,26.266424919318094
15.450000000000085,26.401586124147567
15.500000000000085,26.536914491115848
15.550000000000086,26.672409463426042
15.600000000000087,26.808070487976856
15.650000000000087,26.943897015325931
15.700000000000088,27.079888499653645
15.750000000000089,27.216044398727441
15.80000000000009,27.352364173866594
15.85000000000009,27.488847289907412
15.900000000000091,27.625493215168937
15.950000000000092,27.762301421419078
16.000000000000092,27.899271383841143
16.050000000000093,28.036402581000868
16.100000000000094,28.173694494813798
16.150000000000095,28.311146610513159
16.200000000000095,28.448758416618073
16.250000000000096,28.586529404902201
16.300000000000097,28.72445907036284
16.350000000000097,28.862546911190289
16.400000000000098,29.000792428737721
16.450000000000099,29.139195127491366
16.500000000000099,29.277754515041092
16.5500000000001,29.416470102051324
16.600000000000101,29.55534140223239
16.650000000000102,29.694367932312133
16.700000000000102,29.833549212007956
16.750000000000103,29.972884763999133
16.800000000000104,30.112374113899563
16.850000000000104,30.252016790230748
16.900000000000105,30.391812324395168
16.950000000000106,30.531760250649974
17.000000000000107,30.671860106080974
17.050000000000107,30.812111430576941
17.100000000000108,30.952513766804266
17.150000000000109,31.093066660181872
17.200000000000109,31.23376965885646
17.25000000000011,31.374622313677996
17.300000000000111,31.515624178175603
17.350000000000112,31.656774808533598
17.400000000000112,31.79807376356792
17.450000000000113,31.939520604702796
17.500000000000114,32.081114895947671
17.550000000000114,32.222856203874443
17.600000000000115,32.364744097594937
17.650000000000116,32.506778148738633
17.700000000000117,32.648957931430708
17.750000000000117,32.79128302227025
17.800000000000118,32.933753000308826
17.850000000000119,33.076367447029163
17.900000000000119,33.219125946324247
17.95000000000012,33.362028084476478
18.000000000000121,33.505073450137239
18.050000000000122,33.648261634306515
18.100000000000122,33.791592230312922
18.150000000000123,33.935064833793874
18.200000000000124,34.078679042675908
18.250000000000124,34.222434457155416
18.300000000000125,34.366330679679386
18.350000000000126,34.510367314926512
18.400000000000126,34.654543969788449
18.450000000000127,34.798860253351272
18.500000000000128,34.943315776877185
18.550000000000129,35.087910153786368
18.600000000000129,35.23264299963909
18.65000000000013,35.377513932117992
18.700000000000131,35.522522571010541
18.750000000000131,35.667668538191727
18.800000000000132,35.812951457606907
18.850000000000133,35.958370955254857
18.900000000000134,36.103926659171002
18.950000000000134,36.249618199410818
19.000000000000135,36.395445208033443
19.050000000000136,36.541407319085451
19.100000000000136,36.687504168584759
19.150000000000137,36.833735394504778
19.200000000000138,36.980100636758706
19.250000000000139,37.126599537183964
19.300000000000139,37.273231739526807
19.35000000000014,37.419996889427146
19.400000000000141,37.56689463440344
19.450000000000141,37.713924623837862
19.500000000000142,37.861086508961513
19.550000000000143,38.008379942839859
19.600000000000144,38.155804580358293
19.650000000000144,38.303360078207859
19.700000000000145,38.451046094871131
19.750000000000146,38.598862290608196
19.800000000000146,38.746808327442857
19.850000000000147,38.894883869148934
19.900000000000148,39.043088581236653
19.950000000000149,39.191422130939308
20.000000000000149,39.339884187199935
